#Bourrier et al. (2020)
#https://academic.oup.com/mnras/article/493/1/559/5717312
#cm,ergs/s/cm2
Wavelength,Flux
6.208000000000001e-08,0.005849600000000342
6.224000000000002e-08,0.005729600000000334
6.240000000000003e-08,0.005572800000000325
6.256000000000001e-08,0.005359999999999427
6.272000000000002e-08,0.005142400000000301
6.288000000000003e-08,0.004888000000000285
6.304000000000001e-08,0.004635199999999505
6.320000000000001e-08,0.004406399999999893
6.336000000000002e-08,0.004238400000000249
6.352000000000003e-08,0.004046400000000237
6.368000000000001e-08,0.0039007999999995826
6.384000000000002e-08,0.0037936000000002223
6.400000000000003e-08,0.003707200000000217
6.416000000000001e-08,0.0036575999999996093
6.432000000000001e-08,0.0036239999999999124
6.448000000000002e-08,0.0036064000000002113
6.464000000000003e-08,0.003624000000000212
6.480000000000001e-08,0.0036575999999996093
6.496000000000002e-08,0.003716800000000218
6.512e-08,0.0037855999999995955
6.528000000000001e-08,0.003864000000000226
6.544000000000001e-08,0.0039551999999999045
6.56e-08,0.004075199999999901
6.576000000000001e-08,0.004217600000000247
6.592000000000001e-08,0.004316799999999895
6.608000000000002e-08,0.00443680000000026
6.624e-08,0.0045407999999995145
6.640000000000001e-08,0.004625600000000271
6.656000000000002e-08,0.004678400000000273
6.672e-08,0.004700799999999498
6.688000000000001e-08,0.004700800000000276
6.704000000000001e-08,0.004667199999999887
6.72e-08,0.004603199999999889
6.736000000000003e-08,0.004508800000000636
6.752000000000001e-08,0.004396799999999529
6.768000000000002e-08,0.004257600000000249
6.784000000000003e-08,0.004150400000000243
6.800000000000001e-08,0.004009599999999571
6.816000000000001e-08,0.0038639999999999066
6.832e-08,0.003759999999999909
6.848000000000001e-08,0.0036576000000002142
6.864000000000001e-08,0.0035567999999999143
6.880000000000002e-08,0.003468800000000203
6.896000000000003e-08,0.003396800000000199
6.912000000000001e-08,0.003350399999999642
6.928000000000002e-08,0.003312000000000194
6.944000000000003e-08,0.003281600000000192
6.960000000000001e-08,0.0032735999999996502
6.976000000000001e-08,0.003273599999999921
6.992000000000002e-08,0.0032896000000001927
7.008000000000003e-08,0.0033040000000001935
7.024000000000001e-08,0.0033279999999996446
7.040000000000002e-08,0.0033504000000001964
7.056000000000003e-08,0.003380800000000198
7.072000000000001e-08,0.0034127999999996354
7.088000000000001e-08,0.003436799999999917
7.104000000000002e-08,0.003460800000000203
7.120000000000003e-08,0.0034768000000002038
7.136000000000001e-08,0.0034767999999996287
7.152000000000002e-08,0.003468800000000203
7.168000000000003e-08,0.0034448000000002017
7.184000000000001e-08,0.0034207999999996343
7.200000000000001e-08,0.0033807999999999182
7.216000000000003e-08,0.0033344000000004714
7.232000000000001e-08,0.0032895999999996484
7.248000000000001e-08,0.003244799999999922
7.264000000000002e-08,0.0032000000000001875
7.280000000000003e-08,0.0031632000000001853
7.296000000000001e-08,0.0031263999999996657
7.312000000000002e-08,0.0030976000000001815
7.328000000000003e-08,0.003084800000000181
7.344000000000001e-08,0.003062399999999673
7.360000000000001e-08,0.0030559999999999264
7.376000000000002e-08,0.0030480000000001786
7.392000000000003e-08,0.003041600000000178
7.408000000000001e-08,0.003041599999999675
7.424000000000002e-08,0.003035200000000178
7.440000000000003e-08,0.0030272000000001772
7.456000000000001e-08,0.003020799999999677
7.472000000000002e-08,0.0030064000000001763
7.488000000000003e-08,0.0029936000000001755
7.504000000000003e-08,0.002979199999999928
7.520000000000001e-08,0.0029583999999996838
7.536000000000002e-08,0.0029456000000001726
7.552e-08,0.0029247999999996873
7.568000000000001e-08,0.0029056000000001704
7.584000000000002e-08,0.0028912000000001696
7.6e-08,0.002878399999999692
7.616000000000001e-08,0.002872000000000168
7.632000000000001e-08,0.0028655999999999304
7.648000000000002e-08,0.0028576000000001666
7.664000000000003e-08,0.0028656000000001672
7.680000000000001e-08,0.0028719999999996925
7.696000000000002e-08,0.002878400000000168
7.712000000000003e-08,0.002884800000000169
7.728000000000001e-08,0.0028975999999996905
7.744000000000001e-08,0.00291199999999993
7.760000000000002e-08,0.002931200000000172
7.776000000000003e-08,0.002952000000000173
7.792000000000001e-08,0.0029727999999996824
7.808000000000002e-08,0.0030000000000001757
7.824000000000003e-08,0.003020800000000177
7.840000000000001e-08,0.003041599999999675
7.856000000000002e-08,0.0030560000000001792
7.872000000000003e-08,0.0030624000000001794
7.888000000000003e-08,0.003062399999999926
7.904000000000001e-08,0.0030559999999996736
7.920000000000002e-08,0.0030624000000001794
7.936000000000003e-08,0.0030624000000001794
7.952000000000001e-08,0.0030559999999996736
7.968000000000002e-08,0.003041600000000178
7.984000000000003e-08,0.0030272000000001772
8.000000000000001e-08,0.0029999999999996796
8.016000000000001e-08,0.0029727999999999283
8.032000000000002e-08,0.002931200000000172
8.048000000000003e-08,0.0028976000000001697
8.064000000000001e-08,0.0028655999999996932
8.080000000000002e-08,0.0028384000000001657
8.096000000000003e-08,0.0028192000000001644
8.112000000000001e-08,0.0028063999999996996
8.128000000000001e-08,0.002793599999999932
8.144000000000003e-08,0.002793600000000394
8.160000000000003e-08,0.0028191999999999315
8.176000000000001e-08,0.002857599999999694
8.192000000000002e-08,0.002918400000000171
8.208000000000003e-08,0.002985600000000175
8.224000000000001e-08,0.003076799999999671
8.240000000000002e-08,0.0031856000000001867
8.256000000000003e-08,0.003281600000000192
8.272000000000003e-08,0.003396799999999918
8.288000000000001e-08,0.003516799999999624
8.304000000000002e-08,0.0036400000000002134
8.320000000000003e-08,0.0037600000000002198
8.336000000000001e-08,0.0038735999999995863
8.352000000000002e-08,0.003972800000000233
8.368000000000003e-08,0.004046400000000237
8.384000000000001e-08,0.004094399999999563
8.400000000000002e-08,0.004112000000000241
8.416000000000003e-08,0.00410240000000024
8.432000000000003e-08,0.004055999999999902
8.448000000000004e-08,0.003972800000000233
8.464000000000002e-08,0.003855999999999588
8.480000000000003e-08,0.003724800000000218
8.496000000000001e-08,0.0035823999999996174
8.512000000000002e-08,0.0034368000000002015
8.528000000000003e-08,0.0032896000000001927
8.544000000000003e-08,0.003148799999999924
8.560000000000004e-08,0.0030144000000001765
8.576000000000002e-08,0.0028975999999996905
8.592000000000003e-08,0.002793600000000163
8.608000000000004e-08,0.0027104000000001583
8.624000000000002e-08,0.0026303999999997183
8.640000000000003e-08,0.0025776000000001503
8.656000000000003e-08,0.002542399999999938
8.672000000000002e-08,0.002507199999999939
8.688000000000002e-08,0.00248319999999994
8.704000000000003e-08,0.002467200000000144
8.720000000000004e-08,0.0024496000000001432
8.736000000000002e-08,0.002438399999999739
8.752000000000003e-08,0.002427200000000142
8.768000000000004e-08,0.0024224000000001417
8.784000000000002e-08,0.002422399999999741
8.800000000000003e-08,0.002416000000000141
8.816000000000004e-08,0.002416000000000141
8.832000000000004e-08,0.002415999999999941
8.848000000000002e-08,0.002422399999999741
8.864000000000003e-08,0.0024224000000001417
8.880000000000004e-08,0.002427200000000142
8.896000000000002e-08,0.002438399999999739
8.912000000000003e-08,0.0024560000000001434
8.928000000000004e-08,0.002478400000000145
8.944000000000004e-08,0.002507199999999939
8.960000000000002e-08,0.002542399999999728
8.976000000000004e-08,0.002582400000000364
8.992000000000004e-08,0.002643199999999936
9.008000000000001e-08,0.0027039999999994868
9.024e-08,0.0027807999999999323
9.04e-08,0.00287839999999993
9.056000000000001e-08,0.002972800000000174
9.072000000000001e-08,0.0030767999999999256
9.088e-08,0.003185599999999923
9.104000000000001e-08,0.0032672000000001913
9.120000000000001e-08,0.0033743999999999185
9.136e-08,0.0034767999999999162
9.152e-08,0.003574399999999914
9.168000000000001e-08,0.0036320000000002127
9.184000000000001e-08,0.003691199999999911
9.200000000000003e-08,0.0037168000000005253
9.216000000000001e-08,0.003707199999999604
9.232000000000001e-08,0.0036815999999999112
9.248e-08,0.003639999999999912
9.264000000000001e-08,0.003564800000000209
9.280000000000001e-08,0.0034927999999999158
9.296e-08,0.0034127999999999177
9.312000000000003e-08,0.0033120000000004678
9.328000000000001e-08,0.0032223999999996555
9.344000000000001e-08,0.0031343999999999244
9.360000000000003e-08,0.0030560000000004316
9.376000000000001e-08,0.002966399999999683
9.392000000000001e-08,0.00289759999999993
9.408e-08,0.002825599999999931
9.424000000000003e-08,0.0027552000000003888
9.440000000000001e-08,0.0026927999999997116
9.456000000000001e-08,0.0026367999999999357
9.472000000000003e-08,0.002588800000000365
9.488000000000001e-08,0.0025535999999997264
9.504000000000001e-08,0.002518399999999939
9.520000000000003e-08,0.002489600000000351
9.536e-08,0.002467199999999532
9.552000000000001e-08,0.0024448000000001427
9.568000000000003e-08,0.002422400000000342
9.584000000000003e-08,0.0024047999999999414
9.600000000000001e-08,0.0023823999999997452
9.616000000000001e-08,0.0023663999999999426
9.632000000000003e-08,0.0023504000000003317
9.648000000000001e-08,0.0023391999999997494
9.664000000000001e-08,0.0023279999999999434
9.680000000000003e-08,0.0023184000000003274
9.696000000000003e-08,0.0023071999999999438
9.712000000000001e-08,0.002295999999999754
9.728000000000003e-08,0.0022864000000003227
9.744000000000003e-08,0.0022751999999999443
9.760000000000001e-08,0.0022655999999997576
9.776000000000001e-08,0.002254399999999945
9.792000000000003e-08,0.0022496000000003175
9.808000000000003e-08,0.0022399999999999456
9.824000000000001e-08,0.002233599999999761
9.840000000000003e-08,0.002228800000000315
9.856000000000003e-08,0.0022287999999999458
9.872000000000001e-08,0.002233599999999761
9.888000000000002e-08,0.0022448000000001313
9.904000000000003e-08,0.0022544000000001316
9.920000000000001e-08,0.0022655999999997576
9.936000000000002e-08,0.0022816000000001335
9.952000000000003e-08,0.0022912000000001338
9.968000000000003e-08,0.002302399999999944
9.984000000000001e-08,0.002307199999999753
1.0000000000000002e-07,0.0023120000000001347
1.0016000000000003e-07,0.0023120000000001347
1.0032000000000001e-07,0.002307199999999753
1.0048000000000002e-07,0.002296000000000134
1.0064000000000003e-07,0.0022864000000001336
1.0080000000000003e-07,0.0022703999999999446
1.0096000000000005e-07,0.00226560000000032
1.0112000000000003e-07,0.0022543999999997586
1.0128000000000003e-07,0.0022495999999999454
1.0144000000000001e-07,0.0022447999999997597
1.0160000000000002e-07,0.0022448000000001313
1.0176000000000003e-07,0.0022448000000001313
1.0192000000000003e-07,0.0022495999999999454
1.0208000000000002e-07,0.002254399999999945
1.0224000000000003e-07,0.002260800000000132
1.0240000000000003e-07,0.002265599999999945
1.0256000000000005e-07,0.0022752000000003207
1.0272000000000002e-07,0.0022863999999995664
1.0288000000000003e-07,0.002296000000000134
1.0304000000000005e-07,0.0023072000000003254
1.0320000000000002e-07,0.002323199999999559
1.0336000000000003e-07,0.0023456000000001372
1.0352000000000003e-07,0.0023727999999999423
1.0368000000000005e-07,0.0024000000000003385
1.0384000000000004e-07,0.002438399999999739
1.0400000000000003e-07,0.0024959999999999392
1.0416000000000005e-07,0.002571200000000363
1.0432000000000002e-07,0.0026607999999994953
1.0448000000000003e-07,0.0027552000000001606
1.0464000000000004e-07,0.002884800000000169
1.0480000000000005e-07,0.003041600000000178
1.0496000000000003e-07,0.003199999999999658
1.0512000000000004e-07,0.003374400000000198
1.0528000000000005e-07,0.0035744000000002096
1.0544000000000002e-07,0.0037167999999992954
1.0560000000000003e-07,0.003856000000000226
1.0576000000000005e-07,0.004000000000000566
1.0592000000000002e-07,0.004140799999999214
1.0608000000000003e-07,0.004248000000000249
1.0624000000000004e-07,0.004296000000000252
1.0640000000000005e-07,0.004296000000000252
1.0656000000000002e-07,0.004247999999999195
1.0672000000000005e-07,0.004150400000000587
1.0688000000000005e-07,0.004019200000000235
1.0704000000000002e-07,0.003873599999999266
1.0720000000000003e-07,0.003707200000000217
1.0736000000000004e-07,0.0035248000000002067
1.0752000000000005e-07,0.003366400000000197
1.0768000000000004e-07,0.0032063999999996573
1.0784000000000004e-07,0.0030624000000001794
1.0800000000000005e-07,0.0029456000000001726
1.0816000000000002e-07,0.0028575999999994575
1.0832000000000005e-07,0.002800000000000395
1.0848000000000006e-07,0.002780800000000162
1.0864000000000005e-07,0.0027807999999999323
1.0880000000000005e-07,0.0028191999999999315
1.0896000000000004e-07,0.0028655999999999304
1.0912000000000005e-07,0.002972800000000174
1.0928000000000002e-07,0.0030975999999994126
1.0944000000000005e-07,0.0032448000000004583
1.0960000000000005e-07,0.0033888000000001986
1.0976000000000002e-07,0.003524799999999332
1.0992000000000005e-07,0.003657600000000517
1.1008000000000003e-07,0.0037855999999995955
1.1024000000000001e-07,0.003918399999999581
1.1040000000000001e-07,0.004028799999999903
1.1056000000000003e-07,0.0041312000000005835
1.1072000000000001e-07,0.004198399999999551
1.1088000000000001e-07,0.004267199999999896
1.1104000000000001e-07,0.0043359999999998955
1.1120000000000003e-07,0.00439680000000062
1.1136000000000001e-07,0.004427199999999527
1.1152000000000001e-07,0.004447999999999893
1.1168000000000003e-07,0.0044480000000006285
1.1184000000000001e-07,0.004436799999999525
1.1200000000000001e-07,0.0043967999999998935
1.1216000000000003e-07,0.004345600000000614
1.1232000000000003e-07,0.004267199999999896
1.1248000000000001e-07,0.0041791999999995525
1.1264000000000001e-07,0.004094399999999901
1.1280000000000003e-07,0.004000000000000566
1.1296000000000001e-07,0.0039007999999995826
1.1312000000000001e-07,0.003803199999999908
1.1328000000000003e-07,0.0037248000000005264
1.1344000000000003e-07,0.0036575999999999115
1.1360000000000001e-07,0.003614399999999614
1.1376000000000003e-07,0.003564800000000504
1.1392000000000003e-07,0.003524799999999915
1.1408000000000001e-07,0.0034847999999996276
1.1424000000000004e-07,0.0034368000000004856
1.1440000000000003e-07,0.003396799999999918
1.1456000000000001e-07,0.003350399999999642
1.1472000000000001e-07,0.0032815999999999206
1.1488000000000003e-07,0.003214400000000454
1.1504000000000003e-07,0.003140799999999924
1.1520000000000001e-07,0.0030559999999996736
1.1536000000000004e-07,0.00297280000000042
1.1552000000000003e-07,0.0029055999999999297
1.1568000000000001e-07,0.0028447999999996953
1.1584000000000002e-07,0.0028000000000001635
1.1600000000000003e-07,0.002780800000000162
1.1616000000000003e-07,0.0027615999999999327
1.1632000000000001e-07,0.0027807999999997024
1.1648000000000003e-07,0.002806400000000396
1.1664000000000003e-07,0.002838399999999931
1.1680000000000001e-07,0.0028719999999996925
1.1696000000000004e-07,0.0029056000000004106
1.1712000000000003e-07,0.0029247999999999293
1.1728000000000003e-07,0.002958399999999929
1.1744000000000002e-07,0.002979199999999928
1.1760000000000003e-07,0.002985600000000175
1.1776000000000003e-07,0.0029663999999999286
1.1792000000000005e-07,0.0029248000000004133
1.1808000000000004e-07,0.002878399999999692
1.1824000000000003e-07,0.0028191999999999315
1.1840000000000001e-07,0.002755199999999705
1.1856000000000002e-07,0.0027040000000001577
1.1872000000000003e-07,0.0026432000000001545
1.1888000000000003e-07,0.0026063999999999367
1.1904000000000005e-07,0.002582400000000364
1.1920000000000004e-07,0.002588799999999723
1.1936000000000006e-07,0.0026256000000003704
1.1952000000000005e-07,0.0027039999999999343
1.1968000000000002e-07,0.002819199999999465
1.1984000000000002e-07,0.002958399999999929
1.2000000000000004e-07,0.003134400000000443
1.2016e-07,0.0033199999999993708
1.2032000000000006e-07,0.003540800000001086
1.2048000000000006e-07,0.0037855999999999086
1.2064000000000005e-07,0.004055999999999902
1.2080000000000002e-07,0.004295999999999186
1.2096000000000002e-07,0.004487999999999891
1.2112000000000004e-07,0.004646400000000656
1.2128e-07,0.004809599999999087
1.2144000000000006e-07,0.004910400000001506
1.2160000000000006e-07,0.004979199999999879
1.2176000000000005e-07,0.005012799999999879
1.2192000000000002e-07,0.004990399999999054
1.2208000000000002e-07,0.00492159999999988
1.2224000000000001e-07,0.0048431999999998835
1.2240000000000004e-07,0.004721600000000666
1.2256000000000006e-07,0.0045824000000006465
1.2272000000000006e-07,0.004427199999999893
1.2288000000000005e-07,0.004267199999999896
1.2304000000000002e-07,0.004084799999999226
1.2320000000000002e-07,0.003908799999999905
1.2336000000000001e-07,0.00372479999999991
1.2352000000000006e-07,0.003582400000001099
1.2368000000000006e-07,0.003404799999999918
1.2384000000000006e-07,0.003244799999999922
1.2400000000000005e-07,0.003119999999999925
1.2416000000000002e-07,0.0029999999999994315
1.2432000000000002e-07,0.0029183999999999296
1.2448000000000004e-07,0.0028256000000003987
1.2464000000000006e-07,0.0027168000000003835
1.2480000000000006e-07,0.002643199999999936
1.2496000000000005e-07,0.0025775999999999373
1.2512000000000002e-07,0.0025119999999995233
1.2528000000000002e-07,0.00246079999999994
1.2544000000000004e-07,0.002404800000000339
1.2560000000000004e-07,0.0023551999999999428
1.2576000000000006e-07,0.002312000000000326
1.2592000000000006e-07,0.002295999999999944
1.2608000000000005e-07,0.0022863999999999446
1.2624000000000002e-07,0.0022863999999995664
1.2640000000000002e-07,0.002302399999999944
1.2656000000000004e-07,0.0023280000000003285
1.2672000000000004e-07,0.0023663999999999426
1.2688000000000006e-07,0.0024160000000003406
1.2704000000000006e-07,0.0024447999999999406
1.2720000000000005e-07,0.0024959999999999392
1.2736000000000002e-07,0.002553599999999515
1.2752000000000002e-07,0.002625599999999936
1.2768000000000004e-07,0.0026608000000003756
1.2784000000000004e-07,0.002699199999999934
1.2800000000000006e-07,0.002736000000000386
1.2816000000000006e-07,0.0027807999999999323
1.2832000000000005e-07,0.002787199999999932
1.2848000000000002e-07,0.002787199999999471
1.2864000000000002e-07,0.0027743999999999326
1.2880000000000004e-07,0.0027424000000003867
1.2896000000000004e-07,0.002710399999999934
1.2912000000000006e-07,0.002656000000000375
1.2928000000000006e-07,0.0026015999999999366
1.2944000000000005e-07,0.0025599999999999378
1.2960000000000002e-07,0.002518399999999522
1.2976000000000004e-07,0.00247840000000035
1.2992000000000004e-07,0.002427199999999941
1.3008e-07,0.002366399999999551
1.3024e-07,0.0023279999999999434
1.304e-07,0.002302399999999944
1.3056000000000005e-07,0.0022704000000006957
1.3072000000000002e-07,0.002244799999999574
1.3088000000000002e-07,0.002233599999999946
1.3104000000000001e-07,0.002219199999999946
1.312e-07,0.0022079999999999466
1.3136e-07,0.0022031999999999464
1.3152000000000006e-07,0.002208000000000677
1.3168000000000005e-07,0.002214399999999946
1.3184000000000002e-07,0.002228799999999577
1.3200000000000004e-07,0.002254400000000318
1.3216000000000001e-07,0.002291199999999565
1.3232e-07,0.002345599999999943
1.3248e-07,0.002427199999999941
1.3264000000000005e-07,0.0025072000000007687
1.3280000000000002e-07,0.002606399999999505
1.3296000000000002e-07,0.0027487999999999332
1.3312000000000004e-07,0.0029248000000004133
1.3328e-07,0.0031199999999994084
1.3344e-07,0.00331999999999992
1.3360000000000006e-07,0.0035328000000010838
1.3376000000000005e-07,0.0037167999999999104
1.3392000000000002e-07,0.003945599999999252
1.3408000000000002e-07,0.0041311999999999
1.3424000000000004e-07,0.004307200000000609
1.344e-07,0.004447999999999157
1.3456e-07,0.00454079999999989
1.3472000000000006e-07,0.004582400000001405
1.3488000000000005e-07,0.004593599999999889
1.3504000000000002e-07,0.004561599999999135
1.3520000000000002e-07,0.004487999999999891
1.3536000000000004e-07,0.00439680000000062
1.3552e-07,0.004286399999999187
1.3568000000000006e-07,0.004169600000001279
